Date,Open,High,Low,Close,Volume
2023-12-18,16.25,19.399999618530273,16.25,18.899999618530273,2511418.0
2023-12-19,19.600000381469727,19.799999237060547,18.049999237060547,18.950000762939453,1926599.0
2023-12-20,18.700000762939453,19.799999237060547,17.899999618530273,18.149999618530273,1198050.0
2023-12-21,18.399999618530273,19.299999237060547,17.600000381469727,18.950000762939453,753780.0
2023-12-22,19.350000381469727,19.350000381469727,18.149999618530273,18.350000381469727,283104.0
2023-12-26,18.600000381469727,18.850000381469727,17.75,18.200000762939453,254886.0
2023-12-27,18.25,18.700000762939453,17.299999237060547,17.5,285999.0
2023-12-28,17.600000381469727,17.700000762939453,16.5,16.649999618530273,429151.0
2023-12-29,16.799999237060547,17.950000762939453,16.75,17.5,225203.0
2024-01-01,17.700000762939453,19.049999237060547,17.549999237060547,18.299999237060547,536360.0
2024-01-02,18.75,20.799999237060547,18.450000762939453,20.25,2746516.0
2024-01-03,20.450000762939453,20.700000762939453,19.600000381469727,19.850000381469727,615802.0
2024-01-04,19.899999618530273,20.200000762939453,19.450000762939453,19.549999237060547,357173.0
2024-01-05,19.600000381469727,19.799999237060547,18.399999618530273,19.25,570521.0
2024-01-08,19.25,20.200000762939453,19.049999237060547,19.649999618530273,542363.0
2024-01-09,19.799999237060547,20.700000762939453,19.25,20.350000381469727,692641.0
2024-01-10,20.049999237060547,20.450000762939453,19.799999237060547,19.950000762939453,359423.0
2024-01-11,19.950000762939453,20.200000762939453,19.450000762939453,19.700000762939453,178537.0
2024-01-12,19.700000762939453,20.399999618530273,19.200000762939453,19.350000381469727,395051.0
2024-01-15,19.450000762939453,20.549999237060547,19.299999237060547,19.950000762939453,545691.0
2024-01-16,20.549999237060547,20.600000381469727,19.0,19.549999237060547,438396.0
2024-01-17,19.549999237060547,19.799999237060547,18.850000381469727,19.149999618530273,172470.0
2024-01-18,19.049999237060547,19.799999237060547,18.399999618530273,19.200000762939453,199832.0
2024-01-19,19.399999618530273,20.399999618530273,19.149999618530273,19.75,464185.0
2024-01-23,19.5,19.75,17.899999618530273,18.25,307197.0
2024-01-24,18.299999237060547,18.600000381469727,17.700000762939453,17.899999618530273,522103.0
2024-01-25,18.049999237060547,18.950000762939453,18.0,18.549999237060547,505999.0
2024-01-29,18.850000381469727,19.350000381469727,18.350000381469727,18.549999237060547,473863.0
2024-01-30,18.799999237060547,19.899999618530273,18.100000381469727,19.299999237060547,881136.0
2024-01-31,19.299999237060547,19.799999237060547,18.850000381469727,18.950000762939453,461047.0
2024-02-01,19.25,19.399999618530273,18.5,18.649999618530273,328657.0
2024-02-02,18.850000381469727,19.200000762939453,18.399999618530273,18.5,312814.0
2024-02-05,18.700000762939453,19.350000381469727,18.0,18.149999618530273,255041.0
2024-02-06,18.450000762939453,21.75,18.0,21.75,4434228.0
2024-02-07,21.899999618530273,24.350000381469727,20.5,23.049999237060547,6061557.0
2024-02-08,23.700000762939453,23.899999618530273,22.399999618530273,23.350000381469727,1453883.0
2024-02-09,24.0,24.0,21.0,21.950000762939453,1023722.0
2024-02-12,22.0,22.399999618530273,19.299999237060547,19.649999618530273,702268.0
2024-02-13,19.049999237060547,20.149999618530273,18.700000762939453,19.25,471798.0
2024-02-14,18.850000381469727,20.399999618530273,18.850000381469727,20.25,410323.0
2024-02-15,20.850000381469727,21.200000762939453,20.450000762939453,20.700000762939453,326424.0
2024-02-16,21.049999237060547,21.700000762939453,20.850000381469727,21.25,374675.0
2024-02-19,21.649999618530273,21.649999618530273,20.600000381469727,20.700000762939453,221074.0
2024-02-20,20.700000762939453,21.149999618530273,20.0,20.149999618530273,259170.0
2024-02-21,20.25,21.0,19.450000762939453,19.700000762939453,426046.0
2024-02-22,19.899999618530273,20.850000381469727,19.200000762939453,20.350000381469727,471362.0
2024-02-23,20.5,20.700000762939453,19.799999237060547,19.899999618530273,205478.0
2024-02-26,20.0,20.100000381469727,19.0,19.200000762939453,349526.0
2024-02-27,19.350000381469727,19.950000762939453,18.549999237060547,18.899999618530273,351210.0
2024-02-28,19.0,19.299999237060547,17.899999618530273,18.299999237060547,353315.0
2024-02-29,18.299999237060547,18.5,17.950000762939453,18.350000381469727,104803.0
2024-03-01,18.549999237060547,19.350000381469727,18.299999237060547,19.149999618530273,375337.0
2024-03-04,19.299999237060547,20.5,18.600000381469727,19.600000381469727,1032288.0
2024-03-05,19.600000381469727,20.700000762939453,19.149999618530273,19.399999618530273,430469.0
2024-03-06,19.5,19.600000381469727,18.350000381469727,18.850000381469727,259658.0
2024-03-07,18.600000381469727,19.200000762939453,18.600000381469727,18.75,93568.0
2024-03-11,18.950000762939453,18.950000762939453,17.899999618530273,18.200000762939453,166822.0
2024-03-12,18.149999618530273,18.25,16.600000381469727,16.850000381469727,278542.0
2024-03-13,16.600000381469727,17.049999237060547,15.199999809265137,15.399999618530273,326514.0
2024-03-14,15.300000190734863,16.149999618530273,14.800000190734863,15.75,323350.0
2024-03-15,15.899999618530273,16.299999237060547,15.550000190734863,15.899999618530273,139280.0
2024-03-18,15.649999618530273,16.299999237060547,15.600000381469727,15.949999809265137,101099.0
2024-03-19,15.649999618530273,16.100000381469727,15.149999618530273,15.350000381469727,156688.0
2024-03-20,15.25,15.649999618530273,14.550000190734863,14.899999618530273,175876.0
2024-03-21,15.0,16.5,14.949999809265137,16.049999237060547,618976.0
2024-03-22,16.049999237060547,16.149999618530273,15.600000381469727,15.75,155728.0
2024-03-26,16.0,16.149999618530273,15.399999618530273,15.5,123171.0
2024-03-27,15.399999618530273,15.75,14.5,14.800000190734863,307388.0
2024-03-28,15.0,15.449999809265137,14.550000190734863,14.649999618530273,164925.0
2024-04-01,14.5,16.200000762939453,14.399999618530273,16.100000381469727,220502.0
2024-04-02,16.049999237060547,16.75,15.800000190734863,16.600000381469727,154019.0
2024-04-03,16.950000762939453,17.600000381469727,16.549999237060547,17.299999237060547,301469.0
2024-04-04,17.950000762939453,20.200000762939453,17.100000381469727,19.549999237060547,1437274.0
2024-04-05,19.549999237060547,21.25,18.799999237060547,20.850000381469727,1624947.0
2024-04-08,21.549999237060547,21.549999237060547,19.600000381469727,19.75,367879.0
2024-04-09,19.950000762939453,20.899999618530273,19.399999618530273,19.5,248792.0
2024-04-10,19.549999237060547,20.200000762939453,19.200000762939453,19.350000381469727,168929.0
2024-04-12,19.049999237060547,19.899999618530273,18.299999237060547,18.899999618530273,238854.0
2024-04-15,17.799999237060547,19.299999237060547,17.299999237060547,19.100000381469727,367991.0
2024-04-16,19.100000381469727,21.0,18.5,21.0,1304407.0
2024-04-18,21.399999618530273,23.100000381469727,21.149999618530273,22.149999618530273,1986566.0
2024-04-19,22.0,22.25,20.899999618530273,22.100000381469727,346575.0
2024-04-22,23.049999237060547,23.200000762939453,21.600000381469727,22.450000762939453,371283.0
2024-04-23,22.049999237060547,22.899999618530273,21.799999237060547,22.049999237060547,245867.0
2024-04-24,22.0,22.5,21.899999618530273,22.0,287056.0
2024-04-25,22.25,22.25,21.0,21.350000381469727,173168.0
2024-04-26,21.350000381469727,21.799999237060547,21.350000381469727,21.600000381469727,106113.0
2024-04-29,21.950000762939453,21.950000762939453,21.5,21.700000762939453,117777.0
2024-04-30,22.0,22.700000762939453,21.649999618530273,22.049999237060547,256537.0
2024-05-02,22.350000381469727,23.25,21.149999618530273,22.899999618530273,800970.0
2024-05-03,22.950000762939453,23.0,22.399999618530273,22.600000381469727,178059.0
2024-05-06,22.75,22.850000381469727,22.149999618530273,22.450000762939453,193243.0
2024-05-07,23.0,23.0,21.799999237060547,22.100000381469727,146988.0
2024-05-08,22.5,22.700000762939453,21.950000762939453,22.049999237060547,86039.0
2024-05-09,22.200000762939453,22.25,20.149999618530273,20.799999237060547,112511.0
2024-05-10,20.399999618530273,20.850000381469727,20.149999618530273,20.600000381469727,42582.0
2024-05-13,20.600000381469727,20.850000381469727,19.600000381469727,20.200000762939453,52836.0
2024-05-14,19.799999237060547,22.049999237060547,19.700000762939453,21.549999237060547,173093.0
2024-05-15,21.75,22.25,21.0,21.5,73362.0
2024-05-16,21.899999618530273,21.899999618530273,21.0,21.049999237060547,55536.0
2024-05-17,20.600000381469727,22.200000762939453,20.600000381469727,21.450000762939453,160020.0
2024-05-21,21.0,22.0,20.5,21.25,167699.0
2024-05-22,21.399999618530273,21.450000762939453,20.700000762939453,21.0,65009.0
2024-05-23,21.049999237060547,21.350000381469727,20.600000381469727,20.700000762939453,44899.0
2024-05-24,20.950000762939453,21.049999237060547,20.299999237060547,20.549999237060547,45103.0
2024-05-27,20.600000381469727,20.899999618530273,20.100000381469727,20.25,58758.0
2024-05-28,20.0,20.450000762939453,19.850000381469727,19.899999618530273,46062.0
2024-05-29,19.700000762939453,21.100000381469727,19.700000762939453,20.700000762939453,109213.0
2024-05-30,20.950000762939453,21.100000381469727,19.649999618530273,20.100000381469727,68494.0
2024-05-31,20.0,20.299999237060547,19.549999237060547,19.700000762939453,64092.0
2024-06-03,19.75,20.450000762939453,19.649999618530273,19.799999237060547,46103.0
2024-06-04,20.149999618530273,20.149999618530273,17.850000381469727,18.350000381469727,220207.0
2024-06-05,18.350000381469727,18.899999618530273,17.5,18.299999237060547,96204.0
2024-06-06,18.450000762939453,19.850000381469727,18.350000381469727,19.549999237060547,83179.0
2024-06-07,19.899999618530273,21.5,19.399999618530273,20.0,186798.0
2024-06-10,20.899999618530273,20.899999618530273,20.010000228881836,20.209999084472656,53281.0
2024-06-11,20.3799991607666,20.799999237060547,19.8700008392334,20.209999084472656,66456.0
2024-06-12,20.25,20.5,19.559999465942383,19.969999313354492,82620.0
2024-06-13,20.280000686645508,20.280000686645508,19.850000381469727,19.90999984741211,41243.0
2024-06-14,19.950000762939453,20.899999618530273,19.8799991607666,20.020000457763672,186163.0
2024-06-18,20.049999237060547,20.489999771118164,19.5,19.6299991607666,124568.0
2024-06-19,19.850000381469727,19.850000381469727,19.010000228881836,19.18000030517578,76697.0
2024-06-20,19.3799991607666,19.579999923706055,19.0,19.09000015258789,120780.0
2024-06-21,19.299999237060547,19.530000686645508,19.049999237060547,19.459999084472656,77355.0
2024-06-24,19.649999618530273,20.139999389648438,19.399999618530273,19.459999084472656,127706.0
2024-06-25,19.489999771118164,19.899999618530273,19.260000228881836,19.31999969482422,89751.0
2024-06-26,19.299999237060547,19.8700008392334,19.0,19.530000686645508,137472.0
2024-06-27,19.530000686645508,19.639999389648438,19.360000610351562,19.56999969482422,88836.0
2024-06-28,19.790000915527344,19.790000915527344,19.170000076293945,19.610000610351562,135717.0
2024-07-01,19.739999771118164,20.75,19.6200008392334,20.5,204523.0
2024-07-02,20.510000228881836,21.799999237060547,20.020000457763672,21.15999984741211,666799.0
2024-07-03,21.479999542236328,21.790000915527344,20.899999618530273,20.93000030517578,147120.0
2024-07-04,20.799999237060547,21.18000030517578,20.149999618530273,20.280000686645508,47598.0
2024-07-05,20.700000762939453,21.799999237060547,20.100000381469727,21.020000457763672,168096.0
2024-07-08,21.440000534057617,21.920000076293945,20.5,21.020000457763672,289215.0
2024-07-09,21.239999771118164,21.989999771118164,20.950000762939453,20.969999313354492,160139.0
2024-07-10,21.229999542236328,21.229999542236328,20.299999237060547,20.6200008392334,76323.0
2024-07-11,20.950000762939453,20.950000762939453,20.299999237060547,20.34000015258789,61478.0
2024-07-12,20.25,21.399999618530273,20.25,21.100000381469727,149216.0
2024-07-15,21.469999313354492,21.469999313354492,20.579999923706055,20.729999542236328,62068.0
2024-07-16,20.969999313354492,20.969999313354492,20.1200008392334,20.270000457763672,83161.0
2024-07-18,20.31999969482422,21.25,19.809999465942383,20.469999313354492,199309.0
2024-07-19,20.670000076293945,20.700000762939453,19.809999465942383,20.06999969482422,83057.0
2024-07-22,19.950000762939453,20.06999969482422,19.799999237060547,19.84000015258789,36919.0
2024-07-23,19.850000381469727,20.239999771118164,19.0,19.75,188638.0
2024-07-24,19.520000457763672,21.719999313354492,19.520000457763672,21.600000381469727,602057.0
2024-07-25,21.5,23.270000457763672,21.049999237060547,21.739999771118164,791043.0
2024-07-26,21.739999771118164,22.190000534057617,21.1200008392334,21.25,112955.0
2024-07-29,21.059999465942383,21.459999084472656,20.610000610351562,20.959999084472656,101884.0
2024-07-30,20.520000457763672,21.649999618530273,20.520000457763672,21.1299991607666,72161.0
2024-07-31,21.0,21.43000030517578,20.700000762939453,20.829999923706055,91101.0
2024-08-01,21.389999389648438,21.389999389648438,20.25,20.459999084472656,86999.0
2024-08-02,20.5,20.959999084472656,19.860000610351562,20.770000457763672,100794.0
2024-08-05,20.520000457763672,20.520000457763672,19.389999389648438,19.850000381469727,187224.0
2024-08-06,20.25,20.389999389648438,19.110000610351562,19.399999618530273,66892.0
2024-08-07,19.670000076293945,21.450000762939453,19.020000457763672,20.299999237060547,310962.0
2024-08-08,20.049999237060547,20.860000610351562,20.0,20.1200008392334,36935.0
2024-08-09,20.530000686645508,22.780000686645508,20.200000762939453,21.829999923706055,923112.0
2024-08-12,21.989999771118164,22.399999618530273,21.229999542236328,21.3799991607666,263170.0
2024-08-13,21.780000686645508,21.780000686645508,20.200000762939453,20.309999465942383,96181.0
2024-08-14,20.3700008392334,20.59000015258789,19.809999465942383,19.940000534057617,41942.0
2024-08-16,19.950000762939453,20.440000534057617,19.950000762939453,20.110000610351562,42862.0
2024-08-19,20.34000015258789,22.799999237060547,19.84000015258789,22.389999389648438,564336.0
2024-08-20,25.0,25.350000381469727,21.739999771118164,23.530000686645508,3481112.0
2024-08-21,23.5,24.84000015258789,22.799999237060547,23.040000915527344,896280.0
2024-08-22,23.3700008392334,23.899999618530273,22.510000228881836,22.610000610351562,161195.0
2024-08-23,22.600000381469727,23.489999771118164,21.899999618530273,22.25,367057.0
2024-08-26,22.700000762939453,23.450000762939453,22.100000381469727,22.639999389648438,98490.0
2024-08-27,22.8799991607666,22.8799991607666,21.020000457763672,21.530000686645508,221554.0
2024-08-28,21.68000030517578,21.989999771118164,20.81999969482422,20.979999542236328,202537.0
2024-08-29,21.190000534057617,21.799999237060547,20.649999618530273,20.729999542236328,139786.0
2024-08-30,20.93000030517578,21.440000534057617,20.059999465942383,20.979999542236328,521817.0
2024-09-02,21.299999237060547,22.739999771118164,20.850000381469727,22.139999389648438,637951.0
2024-09-03,22.540000915527344,22.809999465942383,22.0,22.579999923706055,282024.0
2024-09-04,21.6200008392334,22.479999542236328,21.6200008392334,22.010000228881836,91885.0
2024-09-05,22.0,22.739999771118164,21.850000381469727,21.979999542236328,185383.0
2024-09-06,22.170000076293945,22.489999771118164,21.549999237060547,21.969999313354492,269622.0
2024-09-09,21.959999084472656,22.219999313354492,21.520000457763672,21.790000915527344,121701.0
2024-09-10,21.729999542236328,22.290000915527344,21.729999542236328,21.950000762939453,64646.0
2024-09-11,21.950000762939453,22.469999313354492,21.950000762939453,22.030000686645508,112487.0
2024-09-12,22.06999969482422,22.299999237060547,21.450000762939453,21.559999465942383,85942.0
2024-09-13,21.8799991607666,22.5,21.600000381469727,21.959999084472656,401079.0
2024-09-16,22.3799991607666,22.399999618530273,21.809999465942383,21.829999923706055,85258.0
2024-09-17,21.5,22.0,21.5,21.780000686645508,58868.0
2024-09-18,21.959999084472656,21.959999084472656,20.799999237060547,21.149999618530273,179999.0
2024-09-19,21.43000030517578,21.440000534057617,20.450000762939453,20.530000686645508,138484.0
2024-09-20,20.989999771118164,21.399999618530273,20.68000030517578,21.09000015258789,123072.0
2024-09-23,21.100000381469727,21.100000381469727,20.850000381469727,20.90999984741211,50349.0
2024-09-24,20.959999084472656,21.450000762939453,20.649999618530273,20.8700008392334,81450.0
2024-09-25,20.979999542236328,20.989999771118164,19.969999313354492,20.020000457763672,267600.0
2024-09-26,20.280000686645508,20.489999771118164,19.989999771118164,20.190000534057617,111644.0
2024-09-27,20.639999389648438,20.639999389648438,20.020000457763672,20.15999984741211,64691.0
2024-09-30,20.15999984741211,20.600000381469727,20.0,20.149999618530273,159350.0
2024-10-01,20.280000686645508,21.0,20.049999237060547,20.709999084472656,200887.0
2024-10-03,20.979999542236328,20.979999542236328,20.110000610351562,20.190000534057617,85454.0
2024-10-04,20.190000534057617,20.489999771118164,19.450000762939453,19.610000610351562,139100.0
2024-10-07,19.8700008392334,19.8700008392334,18.610000610351562,18.770000457763672,107194.0
2024-10-08,19.0,19.68000030517578,18.690000534057617,19.280000686645508,68949.0
2024-10-09,19.65999984741211,20.65999984741211,19.309999465942383,20.280000686645508,167954.0
2024-10-10,20.440000534057617,20.889999389648438,20.149999618530273,20.309999465942383,125314.0
2024-10-11,20.440000534057617,20.59000015258789,19.81999969482422,19.920000076293945,61127.0
2024-10-14,20.25,20.25,19.649999618530273,19.8799991607666,83934.0
2024-10-15,19.549999237060547,20.0,19.520000457763672,19.579999923706055,40402.0
2024-10-16,19.75,19.75,19.0,19.270000457763672,79476.0
2024-10-17,19.270000457763672,19.469999313354492,18.799999237060547,18.940000534057617,71043.0
2024-10-18,18.81999969482422,19.190000534057617,18.649999618530273,19.059999465942383,42771.0
2024-10-21,19.440000534057617,19.440000534057617,18.700000762939453,18.719999313354492,23218.0
2024-10-22,18.75,18.90999984741211,18.010000228881836,18.049999237060547,31415.0
2024-10-23,18.0,18.389999389648438,17.219999313354492,17.520000457763672,145645.0
2024-10-24,17.329999923706055,17.979999542236328,17.1200008392334,17.84000015258789,76989.0
2024-10-25,17.84000015258789,17.850000381469727,17.25,17.399999618530273,49865.0
2024-10-28,17.100000381469727,17.8700008392334,17.100000381469727,17.229999542236328,51233.0
2024-10-29,17.790000915527344,17.790000915527344,16.90999984741211,17.09000015258789,62044.0
2024-10-30,17.450000762939453,17.950000762939453,17.09000015258789,17.709999084472656,50401.0
2024-10-31,17.40999984741211,18.5,17.40999984741211,17.959999084472656,68500.0
2024-11-01,18.479999542236328,18.770000457763672,18.020000457763672,18.6200008392334,27538.0
2024-11-04,19.049999237060547,20.100000381469727,18.889999389648438,19.209999084472656,143263.0
2024-11-05,19.260000228881836,19.959999084472656,19.260000228881836,19.3799991607666,76329.0
2024-11-06,19.399999618530273,19.690000534057617,18.860000610351562,19.469999313354492,46019.0
2024-11-07,19.479999542236328,19.510000228881836,18.920000076293945,19.09000015258789,25913.0
2024-11-08,19.190000534057617,19.190000534057617,18.600000381469727,18.770000457763672,35145.0
2024-11-11,19.149999618530273,19.299999237060547,18.899999618530273,19.079999923706055,28894.0
2024-11-12,19.239999771118164,19.239999771118164,18.0,18.229999542236328,37599.0
2024-11-13,18.219999313354492,18.219999313354492,17.110000610351562,17.229999542236328,57046.0
2024-11-14,17.579999923706055,17.719999313354492,17.299999237060547,17.579999923706055,23935.0
2024-11-18,17.579999923706055,17.700000762939453,16.6200008392334,16.920000076293945,49551.0
2024-11-19,17.229999542236328,17.639999389648438,16.770000457763672,16.959999084472656,74298.0
2024-11-21,16.799999237060547,17.1200008392334,16.200000762939453,16.329999923706055,54297.0
2024-11-22,16.600000381469727,16.84000015258789,16.3700008392334,16.709999084472656,24507.0
2024-11-25,16.989999771118164,17.549999237060547,16.989999771118164,17.149999618530273,67404.0
2024-11-26,17.489999771118164,17.549999237060547,16.200000762939453,17.149999618530273,39957.0
2024-11-27,17.440000534057617,17.59000015258789,17.15999984741211,17.329999923706055,23814.0
2024-11-28,17.690000534057617,18.100000381469727,17.309999465942383,17.719999313354492,55293.0
2024-11-29,17.979999542236328,18.399999618530273,17.65999984741211,17.889999389648438,22201.0
2024-12-02,18.299999237060547,19.34000015258789,18.010000228881836,18.860000610351562,169219.0
2024-12-03,18.959999084472656,19.209999084472656,18.709999084472656,18.989999771118164,68582.0
2024-12-04,18.639999389648438,20.0,18.610000610351562,19.0,84265.0
2024-12-05,19.0,19.549999237060547,18.700000762939453,19.34000015258789,43020.0
2024-12-06,19.489999771118164,19.600000381469727,18.950000762939453,19.149999618530273,65135.0
2024-12-09,19.149999618530273,20.75,19.149999618530273,19.700000762939453,265881.0
2024-12-10,19.889999389648438,19.93000030517578,19.299999237060547,19.559999465942383,51141.0
2024-12-11,19.700000762939453,19.739999771118164,19.25,19.299999237060547,36732.0
2024-12-12,19.5,19.5,19.06999969482422,19.209999084472656,86996.0
2024-12-13,19.209999084472656,19.479999542236328,18.739999771118164,19.0,44201.0
2024-12-16,18.829999923706055,20.1299991607666,18.829999923706055,19.559999465942383,145246.0
2024-12-17,19.0,19.639999389648438,18.760000228881836,18.950000762939453,55572.0
2024-12-18,18.700000762939453,19.43000030517578,18.600000381469727,18.68000030517578,36704.0
2024-12-19,18.68000030517578,19.030000686645508,18.459999084472656,18.809999465942383,87725.0
2024-12-20,18.989999771118164,19.100000381469727,18.709999084472656,18.75,78285.0
2024-12-23,18.75,18.93000030517578,18.100000381469727,18.15999984741211,51379.0
2024-12-24,18.049999237060547,18.299999237060547,17.309999465942383,17.969999313354492,53752.0
2024-12-26,17.520000457763672,18.079999923706055,17.520000457763672,17.780000686645508,24032.0
2024-12-27,17.549999237060547,17.989999771118164,17.549999237060547,17.829999923706055,26303.0
2024-12-30,17.530000686645508,17.920000076293945,17.530000686645508,17.6299991607666,28077.0
2024-12-31,17.360000610351562,18.969999313354492,17.350000381469727,18.18000030517578,10838.0
2025-01-01,18.200000762939453,18.790000915527344,18.110000610351562,18.18000030517578,79880.0
2025-01-02,18.479999542236328,18.68000030517578,18.18000030517578,18.520000457763672,22543.0
2025-01-03,18.440000534057617,18.989999771118164,18.170000076293945,18.299999237060547,37626.0
2025-01-06,18.170000076293945,18.389999389648438,17.3799991607666,17.440000534057617,42507.0
2025-01-07,17.56999969482422,18.149999618530273,17.56999969482422,18.010000228881836,36407.0
2025-01-08,18.299999237060547,18.299999237060547,18.0,18.010000228881836,28787.0
2025-01-09,18.030000686645508,18.540000915527344,17.5,18.059999465942383,40184.0
2025-01-10,18.489999771118164,18.489999771118164,17.0,17.200000762939453,68615.0
2025-01-13,17.0,17.600000381469727,16.25,16.889999389648438,145736.0
2025-01-14,17.079999923706055,17.280000686645508,16.709999084472656,17.010000228881836,37281.0
2025-01-15,16.780000686645508,17.3799991607666,16.780000686645508,17.100000381469727,50716.0
2025-01-16,17.389999389648438,17.389999389648438,17.0,17.190000534057617,28612.0
2025-01-17,17.010000228881836,17.450000762939453,16.5,16.8799991607666,53823.0
2025-01-20,17.190000534057617,17.190000534057617,16.889999389648438,17.059999465942383,18396.0
2025-01-21,17.059999465942383,17.190000534057617,16.479999542236328,16.510000228881836,43094.0
2025-01-22,16.520000457763672,16.8700008392334,16.25,16.59000015258789,17317.0
2025-01-23,16.549999237060547,17.5,16.299999237060547,16.559999465942383,99971.0
2025-01-24,16.860000610351562,16.860000610351562,14.600000381469727,15.140000343322754,183985.0
2025-01-27,15.140000343322754,15.140000343322754,14.5,14.539999961853027,430577.0
2025-01-28,14.800000190734863,15.949999809265137,14.5,15.390000343322754,97490.0
2025-01-29,15.649999618530273,16.399999618530273,15.460000038146973,16.079999923706055,88820.0
2025-01-30,16.0,18.200000762939453,16.0,17.829999923706055,197686.0
2025-01-31,18.25,20.049999237060547,17.850000381469727,19.479999542236328,491499.0
2025-02-01,19.489999771118164,21.200000762939453,18.530000686645508,20.06999969482422,259985.0
2025-02-03,20.059999465942383,20.059999465942383,19.5,19.6200008392334,68335.0
2025-02-04,19.979999542236328,20.25,19.5,19.899999618530273,50915.0
2025-02-05,20.0,20.0,19.0,19.239999771118164,45610.0
2025-02-06,19.649999618530273,20.799999237060547,18.5,20.43000030517578,263486.0
2025-02-07,20.0,20.389999389648438,19.110000610351562,19.5,102317.0
2025-02-10,20.0,20.0,19.0,19.350000381469727,47454.0
2025-02-11,19.969999313354492,20.600000381469727,19.0,20.280000686645508,297837.0
2025-02-12,20.479999542236328,22.690000534057617,20.360000610351562,22.219999313354492,1727835.0
2025-02-13,22.18000030517578,23.5,21.200000762939453,22.610000610351562,603448.0
2025-02-14,23.399999618530273,23.399999618530273,21.920000076293945,22.43000030517578,244385.0
2025-02-17,22.950000762939453,23.25,22.0,22.520000457763672,221842.0
2025-02-18,23.489999771118164,23.489999771118164,22.0,22.950000762939453,308089.0
2025-02-19,23.290000915527344,27.0,23.010000228881836,25.260000228881836,874064.0
2025-02-20,25.5,29.0,25.06999969482422,27.1299991607666,1263696.0
2025-02-21,27.799999237060547,31.200000762939453,27.5,30.219999313354492,1149173.0
2025-02-24,32.0,36.2599983215332,31.299999237060547,36.2599983215332,5656998.0
2025-02-25,35.0,36.0,34.439998626708984,34.439998626708984,219078.0
2025-02-27,32.709999084472656,32.709999084472656,32.709999084472656,32.709999084472656,7447.0
2025-02-28,31.06999969482422,31.06999969482422,31.06999969482422,31.06999969482422,9825.0
2025-03-03,29.510000228881836,29.510000228881836,29.510000228881836,29.510000228881836,89287.0
2025-03-04,28.079999923706055,28.079999923706055,28.030000686645508,28.030000686645508,8686.0
2025-03-05,26.6200008392334,26.6200008392334,26.6200008392334,26.6200008392334,49996.0
2025-03-06,25.280000686645508,25.280000686645508,25.280000686645508,25.280000686645508,8457.0
2025-03-07,24.010000228881836,26.540000915527344,24.010000228881836,26.540000915527344,356098.0
2025-03-10,27.600000381469727,27.799999237060547,25.209999084472656,25.209999084472656,165006.0
2025-03-11,23.950000762939453,23.950000762939453,23.940000534057617,23.940000534057617,213297.0
2025-03-12,22.739999771118164,24.100000381469727,22.739999771118164,23.809999465942383,371268.0
2025-03-13,23.0,25.0,22.610000610351562,25.0,340195.0
2025-03-17,24.049999237060547,24.5,23.75,23.75,78720.0
2025-03-18,23.75,23.75,23.75,23.75,0.0
2025-03-19,25.450000762939453,25.459999084472656,24.260000228881836,25.459999084472656,63768.0
2025-03-20,26.639999389648438,26.729999542236328,26.5,26.729999542236328,20941.0
2025-03-21,27.700000762939453,28.059999465942383,27.049999237060547,28.059999465942383,98970.0
2025-03-24,29.399999618530273,29.459999084472656,28.5,29.459999084472656,15486.0
2025-03-25,30.93000030517578,30.93000030517578,30.93000030517578,30.93000030517578,44249.0
2025-03-26,31.540000915527344,31.540000915527344,30.309999465942383,31.540000915527344,119962.0
2025-03-27,32.16999816894531,32.16999816894531,32.16999816894531,32.16999816894531,30533.0
2025-03-28,32.810001373291016,32.810001373291016,32.810001373291016,32.810001373291016,28661.0
2025-04-01,33.459999084472656,33.459999084472656,33.459999084472656,33.459999084472656,16372.0
2025-04-02,34.119998931884766,34.119998931884766,34.119998931884766,34.119998931884766,30920.0
2025-04-03,34.79999923706055,34.79999923706055,34.79999923706055,34.79999923706055,22441.0
2025-04-04,35.4900016784668,35.4900016784668,35.4900016784668,35.4900016784668,37274.0
2025-04-07,36.189998626708984,36.189998626708984,36.189998626708984,36.189998626708984,155576.0
2025-04-08,36.90999984741211,36.90999984741211,36.90999984741211,36.90999984741211,36527.0
2025-04-09,37.63999938964844,37.63999938964844,37.63999938964844,37.63999938964844,46587.0
2025-04-11,38.38999938964844,38.38999938964844,38.38999938964844,38.38999938964844,30197.0
2025-04-15,39.150001525878906,39.150001525878906,39.150001525878906,39.150001525878906,31442.0
2025-04-16,39.93000030517578,39.93000030517578,39.93000030517578,39.93000030517578,23110.0
2025-04-17,40.720001220703125,40.720001220703125,40.720001220703125,40.720001220703125,21244.0
2025-04-21,39.900001525878906,39.900001525878906,39.900001525878906,39.900001525878906,281187.0
2025-04-22,39.099998474121094,39.099998474121094,39.099998474121094,39.099998474121094,272985.0
2025-04-23,38.310001373291016,38.310001373291016,38.310001373291016,38.310001373291016,29895.0
2025-04-24,37.540000915527344,37.560001373291016,37.540000915527344,37.540000915527344,523065.0
2025-04-25,36.779998779296875,36.779998779296875,36.779998779296875,36.779998779296875,62507.0
2025-04-28,36.040000915527344,36.779998779296875,36.040000915527344,36.040000915527344,261861.0
2025-04-29,35.310001373291016,35.310001373291016,35.310001373291016,35.310001373291016,49220.0
2025-04-30,34.599998474121094,34.599998474121094,34.599998474121094,34.599998474121094,23775.0
2025-05-02,33.900001525878906,33.900001525878906,33.900001525878906,33.900001525878906,8873.0
2025-05-05,32.5,33.88999938964844,32.20000076293945,32.20000076293945,864614.0
2025-05-06,30.59000015258789,30.59000015258789,30.59000015258789,30.59000015258789,124674.0
2025-05-07,29.059999465942383,32.11000061035156,29.059999465942383,30.829999923706055,364545.0
2025-05-08,32.369998931884766,32.369998931884766,31.889999389648438,32.36000061035156,199465.0
2025-05-09,31.0,33.970001220703125,30.739999771118164,33.95000076293945,161434.0
2025-05-12,35.63999938964844,35.63999938964844,35.380001068115234,35.63999938964844,135622.0
2025-05-13,37.41999816894531,37.41999816894531,37.41999816894531,37.41999816894531,87196.0
2025-05-14,39.290000915527344,39.290000915527344,35.599998474121094,37.7400016784668,1085952.0
2025-05-15,36.97999954223633,36.97999954223633,36.97999954223633,36.97999954223633,76078.0
2025-05-16,37.5,37.5,37.04999923706055,37.5,194376.0
2025-05-19,37.5,37.5,37.099998474121094,37.5,59507.0
2025-05-20,38.25,38.25,37.83000183105469,38.25,50707.0
2025-05-21,39.0099983215332,39.0099983215332,39.0099983215332,39.0099983215332,11730.0
2025-05-22,39.790000915527344,39.790000915527344,39.790000915527344,39.790000915527344,21454.0
2025-05-23,40.58000183105469,40.58000183105469,40.58000183105469,40.58000183105469,10670.0
2025-05-26,41.38999938964844,41.38999938964844,41.38999938964844,41.38999938964844,8638.0
2025-05-27,42.209999084472656,42.209999084472656,42.209999084472656,42.209999084472656,12604.0
2025-05-28,43.04999923706055,43.04999923706055,43.04999923706055,43.04999923706055,17800.0
2025-05-29,43.90999984741211,43.90999984741211,43.90999984741211,43.90999984741211,8293.0
2025-05-30,43.029998779296875,44.779998779296875,43.029998779296875,43.029998779296875,860078.0
2025-06-02,42.15999984741211,42.15999984741211,42.15999984741211,42.15999984741211,95544.0
2025-06-03,41.310001373291016,41.310001373291016,41.310001373291016,41.310001373291016,25827.0
2025-06-04,40.47999954223633,40.47999954223633,40.47999954223633,40.47999954223633,37980.0
2025-06-05,39.66999816894531,39.66999816894531,39.66999816894531,39.66999816894531,47978.0
2025-06-06,38.869998931884766,38.869998931884766,38.869998931884766,38.869998931884766,21615.0
2025-06-09,39.63999938964844,39.63999938964844,38.09000015258789,39.63999938964844,212381.0
2025-06-10,38.84000015258789,38.84000015258789,38.84000015258789,38.84000015258789,59702.0
2025-06-11,38.060001373291016,38.060001373291016,38.060001373291016,38.060001373291016,41232.0
2025-06-12,37.290000915527344,37.290000915527344,37.290000915527344,37.290000915527344,170845.0
2025-06-13,36.540000915527344,36.540000915527344,36.540000915527344,36.540000915527344,38358.0
2025-06-16,35.79999923706055,35.79999923706055,35.79999923706055,35.79999923706055,7095.0
2025-06-17,35.08000183105469,35.08000183105469,35.08000183105469,35.08000183105469,46973.0
2025-06-18,34.369998931884766,35.779998779296875,34.369998931884766,34.369998931884766,675387.0
2025-06-19,33.68000030517578,33.68000030517578,33.68000030517578,33.68000030517578,126661.0
2025-06-20,33.0,33.0,33.0,33.0,440710.0
2025-06-23,31.350000381469727,31.350000381469727,31.350000381469727,31.350000381469727,89928.0
2025-06-24,29.780000686645508,32.90999984741211,29.780000686645508,31.709999084472656,820012.0
2025-06-25,30.600000381469727,32.400001525878906,30.1200008392334,31.829999923706055,277473.0
2025-06-26,32.0,32.900001525878906,31.149999618530273,31.329999923706055,46820.0
2025-06-27,30.700000762939453,32.88999938964844,30.700000762939453,32.880001068115234,96552.0
2025-06-30,33.400001525878906,34.52000045776367,33.400001525878906,34.52000045776367,158910.0
2025-07-01,36.2400016784668,36.2400016784668,35.0099983215332,35.150001525878906,265582.0
2025-07-02,36.0,36.0,33.38999938964844,33.75,285130.0
2025-07-03,33.400001525878906,34.25,32.06999969482422,32.13999938964844,140776.0
2025-07-04,31.850000381469727,32.5,31.049999237060547,32.06999969482422,63461.0
2025-07-07,31.399999618530273,32.689998626708984,31.0,32.11000061035156,32457.0
2025-07-08,31.989999771118164,32.70000076293945,30.649999618530273,32.0,22583.0
2025-07-09,32.0,32.900001525878906,31.100000381469727,31.420000076293945,45210.0
2025-07-10,31.510000228881836,32.45000076293945,31.0,31.219999313354492,71143.0
2025-07-11,32.20000076293945,32.20000076293945,31.0,31.75,35786.0
2025-07-14,32.2400016784668,32.2400016784668,31.06999969482422,31.56999969482422,16558.0
2025-07-15,31.56999969482422,32.099998474121094,30.959999084472656,31.93000030517578,48930.0
2025-07-16,32.0,33.52000045776367,32.0,33.52000045776367,29399.0
2025-07-17,35.099998474121094,35.189998626708984,35.0,35.189998626708984,269257.0
2025-07-18,34.220001220703125,36.939998626708984,34.099998474121094,36.939998626708984,145115.0
2025-07-21,35.5099983215332,38.0,35.09000015258789,35.91999816894531,556017.0
2025-07-22,35.20000076293945,35.20000076293945,35.20000076293945,35.20000076293945,53617.0
2025-07-23,34.4900016784668,34.4900016784668,34.4900016784668,34.4900016784668,3055.0
2025-07-24,33.79999923706055,33.79999923706055,33.79999923706055,33.79999923706055,927.0
2025-07-25,33.119998931884766,33.119998931884766,33.119998931884766,33.119998931884766,25133.0
2025-07-28,32.45000076293945,32.45000076293945,32.45000076293945,32.45000076293945,17643.0
2025-07-29,33.09000015258789,33.09000015258789,32.45000076293945,33.09000015258789,95494.0
2025-07-30,33.04999923706055,33.689998626708984,33.0,33.04999923706055,14824.0
2025-07-31,33.45000076293945,33.45000076293945,33.0,33.45000076293945,17210.0
2025-08-01,33.599998474121094,33.599998474121094,33.599998474121094,33.599998474121094,24953.0
2025-08-04,34.27000045776367,34.27000045776367,33.0,34.27000045776367,14652.0
2025-08-05,34.880001068115234,34.91999816894531,34.880001068115234,34.880001068115234,13276.0
2025-08-06,34.18000030517578,34.880001068115234,34.18000030517578,34.18000030517578,1591.0
2025-08-07,33.4900016784668,33.9900016784668,33.4900016784668,33.4900016784668,118.0
2025-08-08,33.0,33.4900016784668,32.81999969482422,33.0,32051.0
2025-08-11,33.0,33.0,32.40999984741211,33.0,4094.0
2025-08-12,32.34000015258789,33.0,32.34000015258789,32.34000015258789,4823.0
2025-08-13,31.700000762939453,32.5,31.700000762939453,31.700000762939453,24098.0
2025-08-14,31.059999465942383,31.110000610351562,31.059999465942383,31.059999465942383,3650.0
2025-08-18,30.43000030517578,31.209999084472656,30.43000030517578,30.43000030517578,14696.0
2025-08-19,31.030000686645508,31.030000686645508,30.610000610351562,31.030000686645508,53106.0
2025-08-20,31.600000381469727,31.649999618530273,31.489999771118164,31.600000381469727,16197.0
2025-08-21,32.22999954223633,32.22999954223633,32.0,32.22999954223633,24766.0
2025-08-22,32.869998931884766,32.869998931884766,32.869998931884766,32.869998931884766,2601.0
2025-08-25,33.0,33.52000045776367,32.97999954223633,33.0,46052.0
2025-08-26,32.34000015258789,32.34000015258789,32.34000015258789,32.34000015258789,47021.0
2025-08-28,31.690000534057617,31.75,31.690000534057617,31.690000534057617,13156.0
2025-08-29,31.100000381469727,31.600000381469727,31.049999237060547,31.100000381469727,41353.0
2025-09-01,31.40999984741211,32.20000076293945,29.6299991607666,31.15999984741211,49878.0
2025-09-02,30.149999618530273,31.520000457763672,30.0,30.170000076293945,27743.0
2025-09-03,30.0,30.68000030517578,29.149999618530273,30.18000030517578,34576.0
2025-09-04,29.950000762939453,30.899999618530273,29.200000762939453,29.530000686645508,30932.0
2025-09-05,29.56999969482422,30.0,29.0,29.610000610351562,16345.0
2025-09-08,29.610000610351562,31.06999969482422,29.5,30.270000457763672,8810.0
2025-09-09,29.799999237060547,30.8700008392334,29.260000228881836,30.0,47216.0
2025-09-10,29.510000228881836,31.0,29.399999618530273,30.5,23235.0
2025-09-11,29.899999618530273,31.0,29.5,30.600000381469727,20208.0
2025-09-12,30.260000228881836,31.40999984741211,30.209999084472656,31.030000686645508,16174.0
2025-09-15,32.5,37.22999954223633,32.5,33.970001220703125,898722.0
2025-09-16,34.0,35.9900016784668,33.599998474121094,34.869998931884766,149365.0
2025-09-17,35.0,35.0,32.20000076293945,32.849998474121094,112132.0
2025-09-18,32.79999923706055,36.18000030517578,32.2599983215332,34.5,132921.0
2025-09-19,34.4900016784668,35.95000076293945,33.0,34.790000915527344,65706.0
2025-09-22,35.45000076293945,35.45000076293945,33.0099983215332,33.130001068115234,36939.0
2025-09-23,33.0,34.599998474121094,32.4900016784668,32.86000061035156,572020.0
2025-09-24,33.5,33.900001525878906,32.0,32.20000076293945,57140.0
2025-09-25,33.0099983215332,33.060001373291016,31.299999237060547,32.029998779296875,36075.0
2025-09-26,32.029998779296875,33.029998779296875,31.200000762939453,31.3799991607666,23145.0
2025-09-29,30.549999237060547,33.0,30.549999237060547,30.93000030517578,57589.0
2025-09-30,30.549999237060547,31.950000762939453,30.549999237060547,30.959999084472656,28094.0
2025-10-01,30.100000381469727,31.09000015258789,29.200000762939453,30.549999237060547,38738.0
2025-10-03,29.5,33.5,29.5,33.099998474121094,85307.0
2025-10-06,32.5099983215332,33.790000915527344,32.5,32.52000045776367,37376.0
2025-10-07,32.099998474121094,33.0,32.0099983215332,32.2599983215332,35119.0
2025-10-08,32.97999954223633,33.0,31.0,31.56999969482422,46363.0
2025-10-09,31.520000457763672,33.43000030517578,31.010000228881836,31.920000076293945,29561.0
2025-10-10,31.200000762939453,32.599998474121094,31.200000762939453,31.489999771118164,14397.0
2025-10-13,31.010000228881836,31.510000228881836,30.010000228881836,30.18000030517578,48814.0
2025-10-14,30.8700008392334,31.0,29.850000381469727,30.219999313354492,71252.0
2025-10-15,29.75,30.90999984741211,29.6299991607666,29.90999984741211,40992.0
2025-10-16,30.049999237060547,33.02000045776367,30.049999237060547,30.940000534057617,141910.0
2025-10-17,30.530000686645508,30.899999618530273,29.399999618530273,29.709999084472656,75588.0
2025-10-20,29.110000610351562,30.5,29.110000610351562,29.899999618530273,25277.0
2025-10-21,30.200000762939453,31.0,29.0,29.81999969482422,16281.0
2025-10-23,29.420000076293945,30.0,29.420000076293945,29.889999389648438,11742.0
2025-10-24,29.6299991607666,30.0,29.5,29.940000534057617,24142.0
2025-10-27,29.559999465942383,29.989999771118164,29.020000457763672,29.790000915527344,37934.0
2025-10-28,29.299999237060547,29.920000076293945,29.270000457763672,29.799999237060547,31096.0
2025-10-29,29.799999237060547,30.170000076293945,29.43000030517578,29.549999237060547,18764.0
2025-10-30,29.190000534057617,30.469999313354492,29.190000534057617,29.790000915527344,31172.0
2025-10-31,29.329999923706055,30.0,29.0,29.139999389648438,19506.0
2025-11-03,29.200000762939453,29.899999618530273,29.190000534057617,29.299999237060547,11459.0
2025-11-04,29.389999389648438,29.389999389648438,27.350000381469727,28.260000228881836,25781.0
2025-11-06,28.299999237060547,28.899999618530273,28.030000686645508,28.5,27537.0
2025-11-07,27.5,28.799999237060547,27.049999237060547,28.15999984741211,36353.0
2025-11-10,27.170000076293945,30.690000534057617,27.170000076293945,29.219999313354492,28887.0
2025-11-11,29.360000610351562,29.3700008392334,28.399999618530273,28.940000534057617,12152.0
2025-11-12,28.93000030517578,29.09000015258789,28.40999984741211,28.8700008392334,7515.0
2025-11-13,28.25,29.489999771118164,28.0,29.020000457763672,111427.0
2025-11-14,29.489999771118164,30.0,28.600000381469727,29.290000915527344,22137.0
2025-11-17,30.0,30.190000534057617,29.5,29.899999618530273,25781.0
2025-11-18,29.700000762939453,30.0,29.190000534057617,29.729999542236328,38362.0
2025-11-19,30.5,32.0,29.25,29.8700008392334,123417.0
2025-11-20,30.5,30.5,29.15999984741211,29.729999542236328,84265.0
2025-11-21,29.170000076293945,30.0,28.299999237060547,29.1299991607666,96140.0
2025-11-24,28.299999237060547,29.190000534057617,28.0,28.239999771118164,32501.0
2025-11-25,27.329999923706055,29.899999618530273,27.329999923706055,28.790000915527344,168119.0
2025-11-26,30.850000381469727,30.850000381469727,28.200000762939453,28.8799991607666,110489.0
2025-11-27,29.940000534057617,30.399999618530273,28.309999465942383,29.799999237060547,66309.0
2025-11-28,30.100000381469727,30.65999984741211,29.299999237060547,30.209999084472656,15229.0
2025-12-01,29.899999618530273,31.479999542236328,29.190000534057617,29.75,22785.0
2025-12-02,29.020000457763672,30.8700008392334,29.020000457763672,29.690000534057617,41841.0
2025-12-03,30.59000015258789,30.600000381469727,29.260000228881836,30.09000015258789,36203.0
2025-12-04,30.920000076293945,30.920000076293945,29.950000762939453,29.989999771118164,34798.0
2025-12-05,30.790000915527344,30.790000915527344,29.549999237060547,30.139999389648438,27776.0
2025-12-08,30.010000228881836,30.329999923706055,29.260000228881836,29.989999771118164,34446.0
2025-12-09,29.799999237060547,30.84000015258789,29.799999237060547,30.280000686645508,118916.0
2025-12-10,30.899999618530273,31.520000457763672,30.209999084472656,31.020000457763672,36752.0
2025-12-11,31.290000915527344,32.0099983215332,30.799999237060547,31.06999969482422,26789.0
2025-12-12,31.90999984741211,31.979999542236328,30.950000762939453,31.170000076293945,38074.0
2025-12-15,30.600000381469727,31.989999771118164,30.0,31.389999389648438,97094.0
2025-12-16,30.65999984741211,31.639999389648438,30.65999984741211,31.010000228881836,23626.0
2025-12-17,31.260000228881836,31.469999313354492,30.549999237060547,30.56999969482422,23093.0
2025-12-18,31.75,31.75,30.200000762939453,30.469999313354492,21613.0
